"Freq [GHz]","AbsorbanceTM []"
30,0.00230466148624753
30.1,0.00236454313739554
30.2,0.00240517895619918
30.3,0.0024290114194655
30.4,0.00243830602228345
30.5,0.00243515654655302
30.6,0.00242149069026365
30.7,0.00239907600445177
30.8,0.002369526086894
30.9,0.00233430698397263
31,0.00229474375500427
31.1,0.00225202715552186
31.2,0.00220722039910393
31.3,0.00216126595992294
31.4,0.0021149923810091
31.5,0.00206912105598689
31.6,0.00202427295465224
31.7,0.0019809752656228
31.8,0.0019396679316066
31.9,0.00190071005551429
32,0.00186438615797635
32.1,0.0018309122690261
32.2,0.00180044183899264
32.3,0.00177307145574435
32.4,0.00174884635696693
32.5,0.00172776572870292
32.6,0.00170978778224395
32.7,0.00169483460372133
32.8,0.00168279677175232
32.9,0.00167353774020429
33,0.00166689798405262
33.1,0.00166269890774684
33.2,0.0016607465163696
33.3,0.00166083485091628
33.4,0.00166274918985454
33.5,0.00166626901989297
33.6,0.00167117077974277
33.7,0.00167723038108503
33.8,0.00168422551171066
33.9,0.00169193772617082
34,0.00170015432989279
34.1,0.00170867006302577
34.2,0.00171728859050235
34.3,0.0017258238054495
34.4,0.00173410095295867
34.5,0.00174195758177054
34.6,0.00174924433136925
34.7,0.00175582556228482
34.8,0.00176157983753744
34.9,0.00176640026302721
35,0.00177019469508333
35.1,0.00177288582306367
35.2,0.0017744111352167
35.3,0.00177472277573276
35.4,0.00177378730111211
35.5,0.00177158534372523
35.6,0.0017681111904978
35.7,0.00176337228447476
35.8,0.00175738865696184
35.9,0.0017501922977311
36,0.00174182647075671
36.1,0.00173234498259744
36.2,0.00172181141049432
36.3,0.001710298297116
36.4,0.00169788631841061
36.5,0.00168466343113594
36.6,0.00167072400608603
36.7,0.00165616795310219
36.8,0.00164109984339089
36.9,0.00162562803465782
37,0.00160986380411599
37.1,0.00159392049424079
37.2,0.00157791267590923
37.3,0.00156195533301973
37.4,0.00154616307277744
37.5,0.00153064936506275
37.6,0.00151552581455416
37.7,0.00150090146836646
37.8,0.00148688216217385
37.9,0.00147356990716696
38,0.00146106232002785
38.1,0.0014494520977707
38.2,0.00143882653898508
38.3,0.00142926711280544
38.4,0.00142084907647055
38.5,0.00141364114233333
38.6,0.00140770519459088
38.7,0.00140309605598898
38.8,0.00139986130441117
38.9,0.00139804113900233
39,0.00139766829523646
39.1,0.0013987680080485
39.2,0.00140135802241259
39.3,0.00140544864952252
39.4,0.00141104286774896
39.5,0.00141813646648925
39.6,0.00142671823127616
39.7,0.00143677016817079
39.8,0.00144826776554996
39.9,0.00146118029099607
40,0.0014754711210645
40.1,0.00149109810162817
40.2,0.00150801393619937
40.3,0.00152616659990101
40.4,0.00154549977637064
40.5,0.00156595331494036
40.6,0.0015874637056017
40.7,0.00160996456896667
40.8,0.00163338715842076
40.9,0.00165766087211872
41,0.00168271377181628
41.1,0.00170847310608613
41.2,0.00173486583537508
41.3,0.00176181915615059
41.4,0.00178926102191312
41.5,0.00181712065851791
41.6,0.00184532907148083
41.7,0.00187381954317423
41.8,0.00190252811763958
41.9,0.00193139407105947
42,0.0019603603661531
42.1,0.00198937408836997
42.2,0.00201838686263933
42.3,0.00204735524901833
42.4,0.00207624111578619
42.5,0.00210501198910173
42.6,0.00213364137791483
42.7,0.00216210907343217
42.8,0.00219040142244398
42.9,0.00221851157397668
43,0.00224643969893024
43.1,0.00227419318263522
43.2,0.00230178679028936
43.3,0.00232924280558866
43.4,0.00235659114280962
43.5,0.00238386943330815
43.6,0.00241112308677116
43.7,0.00243840532871209
43.8,0.00246577721509722
43.9,0.00249330762554922
44,0.00252107323700179
44.1,0.00254915847927006
44.2,0.00257765547473632
44.3,0.00260666396443487
44.4,0.00263629122281306
44.5,0.00266665196383997
44.6,0.00269786824160156
44.7,0.00273006934780984
44.8,0.00276339171040962
44.9,0.00279797879589261
45,0.0028339810198369
45.1,0.00287155566908492
45.2,0.0029108668403206
45.3,0.00295208539909653
45.4,0.00299538896457874
45.5,0.00304096192462833
45.6,0.00308899548711938
45.7,0.0031396877729355
45.8,0.00319324395691101
45.9,0.00324987646329433
46,0.00330980522265656
46.1,0.00337325799773025
46.2,0.00344047078630261
46.3,0.0035116883094799
46.4,0.00358716459488106
46.5,0.00366716366438713
46.6,0.00375196033735947
46.7,0.00384184116081598
46.8,0.00393710547887149
46.9,0.00403806665520245
47,0.00414505346305583
47.1,0.00425841165822682
47.2,0.00437850575266474
47.3,0.00450572100641533
47.4,0.00464046565808274
47.5,0.00478317341475709
47.6,0.00493430622389501
47.7,0.0050943573510861
47.8,0.00526385478837132
47.9,0.00544336501889964
48,0.00563349716373751
48.1,0.00583490753616123
48.2,0.00604830462724049
48.3,0.00627445454317832
48.4,0.00651418690942251
48.5,0.00676840124827327
48.6,0.00703807382383903
48.7,0.0073242649300389
48.8,0.00762812657121636
48.9,0.00795091044917029
49,0.00829397612030536
49.1,0.00865879911964729
49.2,0.00904697875707838
49.3,0.0094602451697916
49.4,0.00990046505399311
49.5,0.0103696452867246
49.6,0.0108699333732312
49.7,0.0114036132981888
49.8,0.0119730949050704
49.9,0.0125808943556392
50,0.0132296025140771
50.1,0.0139218372461232
50.2,0.0146601746234725
50.3,0.0154470529071082
50.4,0.0162846420221103
50.5,0.0171746701835797
50.6,0.0181181986491689
50.7,0.0191153356934325
50.8,0.0201648824716014
50.9,0.0212639073839119
51,0.0224072530457116
51.1,0.0235869923410096
51.2,0.0247918684640069
51.3,0.0260067787358372
51.4,0.0272123919707359
51.5,0.0283850198566188
51.6,0.0294968855558769
51.7,0.0305169343271988
51.8,0.0314122955593541
51.9,0.032150419731229
52,0.0327017742240716
52.1,0.0330428027274106
52.2,0.0331586658021324
52.3,0.0330451221508709
52.4,0.032708807800789
52.5,0.0321651593509963
52.6,0.0314334940630143
52.7,0.0305299284661016
52.8,0.0294617750870653
52.9,0.0282304340564311
53,0.0268462707356499
53.1,0.0253441800158638
53.2,0.0237815540812379
53.3,0.0222194468354874
53.4,0.0207055548852778
53.5,0.0192693920745511
53.6,0.0179258254054997
53.7,0.0166804373881235
53.8,0.0155336695953273
53.9,0.0144833879349265
54,0.0135263533119645
54.1,0.0126590805675012
54.2,0.0118783968313864
54.3,0.0111818785835578
54.4,0.010568278230336
54.5,0.0100380292549481
54.6,0.00959393170626421
54.7,0.00924216791173671
54.8,0.00899390026808256
54.9,0.00886790691273787
55,0.00889512917108337
55.1,0.00912690551436857
55.2,0.00965073611194012
55.3,0.0106225621229296
55.4,0.0123385966962254
55.5,0.0154130775721781
55.6,0.0212844730881596
55.7,0.0339677550898587
55.8,0.0681614815989313
55.9,0.208500514511907
56,0.916739354701236
56.1,0.262540951277762
56.2,0.0807583992387565
56.3,0.0387572958765369
56.4,0.0232771809687102
56.5,0.0159044536211186
56.6,0.0117962239849581
56.7,0.00925098952348158
56.8,0.00754853803167144
56.9,0.00634177096774957
57,0.00544658801460329
57.1,0.00475786364957131
57.2,0.00421193823589627
57.3,0.00376836993363172
57.4,0.00340042117858608
57.5,0.003089808415913
57.6,0.00282366308293203
57.7,0.00259269967515219
57.8,0.00239007210791364
57.9,0.00221063759295914
58,0.00205046980177404
58.1,0.0019065289249306
58.2,0.00177643294504726
58.3,0.00165829558497077
58.4,0.00155060893103165
58.5,0.00145215635600682
58.6,0.0013619461141523
58.7,0.0012791590065222
58.8,0.0012031055109808
58.9,0.00113318918848815
59,0.00106887438099734
59.1,0.00100965762997984
59.2,0.000955044590803311
59.3,0.000904539011460481
59.4,0.000857661141053012
59.5,0.000814038638622505
59.6,0.000773677411974094
59.7,0.000737690815246217
59.8,0.000710255418784667
59.9,0.00070410708459967
60,0.000757427850075931
60.1,0.00110810498891312
60.2,0.00118798717499413
60.3,0.00259060512784071
60.4,0.0126497196169691
60.5,0.0114981952173938
60.6,0.00335264643266286
60.7,0.00184024918361203
60.8,0.00133517411310635
60.9,0.00111119566018836
61,0.00100237433532591
61.1,0.000957218220408285
61.2,0.000960257705560075
61.3,0.00101558989110062
61.4,0.00115376198993444
61.5,0.00148712824046648
61.6,0.00263186039554009
61.7,0.0250079735744844
61.8,0.00199576643675703
61.9,0.000485084215483322
62,0.000480906622505883
62.1,0.000590021464238921
62.2,0.00572227438329653
62.3,0.000814544620485802
62.4,0.000953901719335959
62.5,0.00113305228130234
62.6,0.00135493379060259
62.7,0.00163324932520692
62.8,0.00198805213663522
62.9,0.00244797573378341
63,0.00305440786832323
63.1,0.00386786856399934
63.2,0.00497702610214323
63.3,0.00650917244984828
63.4,0.008633963481395
63.5,0.011529532242993
63.6,0.0152280156202066
63.7,0.0192319677823526
63.8,0.0221450845367221
63.9,0.0223967707234634
64,0.0199876051886561
64.1,0.016419510738886
64.2,0.0130045659876529
64.3,0.0102408405042983
64.4,0.00814470113915988
64.5,0.00658520885812985
64.6,0.00542451050657222
64.7,0.00455405241988682
64.8,0.00389575842626921
64.9,0.00339526881952212
65,0.00301524456130042
65.1,0.00273039994223867
65.2,0.00252421871162489
65.3,0.00238702631800225
65.4,0.00231520862676915
65.5,0.00231163018467839
65.6,0.00238775985805406
65.7,0.00256898530818916
65.8,0.00290713478749338
65.9,0.00351198807283348
66,0.00464178927425973
66.1,0.00702137656304447
66.2,0.0133700539235957
66.3,0.0406968459390956
66.4,0.151459767273643
66.5,0.0268738107935377
66.6,0.00775490223028807
66.7,0.0035340575526136
66.8,0.00208727374204987
66.9,0.00147710890513819
67,0.00119654982531703
67.1,0.00105461884319924
67.2,0.000592831055637788
67.3,0.00122045098250656
67.4,0.00131035124982459
67.5,0.00159828503769499
67.6,0.00174542746283846
67.7,0.00200829566447969
67.8,0.00234592235384878
67.9,0.00276776641208465
68,0.00329121178041147
68.1,0.00394013658152104
68.2,0.00474572440712218
68.3,0.00574768656983571
68.4,0.0069951744818324
68.5,0.00854623356472262
68.6,0.0104635332880458
68.7,0.0128022867374425
68.8,0.0155843371103713
68.9,0.0187531937761914
69,0.0221154235156924
69.1,0.0253018541028051
69.2,0.0278139345965339
69.3,0.0291965622480874
69.4,0.0292565238463307
69.5,0.0281490932977065
69.6,0.0262617618726307
69.7,0.0240167015234272
69.8,0.0217390399070453
69.9,0.0196254222043789
70,0.0177699747711904
70.1,0.0162031626131363
70.2,0.0149231077855392
70.3,0.0139158208547336
70.4,0.0131670559504994
70.5,0.0126693604843445
70.6,0.0124272189728819
70.7,0.0124626124306825
70.8,0.0128234008844677
70.9,0.0135981346905331
71,0.0149442731445674
71.1,0.0171453424804293
71.2,0.0207352087468091
71.3,0.0267929242606204
71.4,0.0377194612040301
71.5,0.0595200397710296
71.6,0.108641612776954
71.7,0.217923830675422
71.8,0.30563887967386
71.9,0.161906775457329
72,0.0815500110395637
72.1,0.0454727626940408
72.2,0.0285313864795278
72.3,0.0196159577761836
72.4,0.0144329906520232
72.5,0.0111755084681585
72.6,0.00900026883112715
72.7,0.00747684827574513
72.8,0.00636876822397792
72.9,0.00553809894572177
73,0.00490039409909926
73.1,0.00440190343155578
73.2,0.00400737479745794
73.3,0.00369320832819409
73.4,0.00344346514675742
73.5,0.0032474746354797
73.6,0.00309838039794885
73.7,0.00299226678060116
73.8,0.00292766874437256
73.9,0.00290535908475786
74,0.00292836333597479
74.1,0.00300219252559564
74.2,0.0031353181293311
74.3,0.00333994987066533
74.4,0.00363322249642917
74.5,0.00403896017109573
74.6,0.00459027577056248
74.7,0.00533338576091602
74.8,0.00633317920690468
74.9,0.00768123404925902
75,0.00950696567472653
75.1,0.0122019044863944
75.2,0.0160807072982946
75.3,0.0217028089445328
75.4,0.0298479323145959
75.5,0.0412749245025952
75.6,0.0556192142083727
75.7,0.069128313977517
75.8,0.0748238710512248
75.9,0.0698796933966243
76,0.0592627268416919
76.1,0.0487514054875759
76.2,0.0409097780511718
76.3,0.0364117855435518
76.4,0.035814826662987
76.5,0.0407721457642209
76.6,0.0553244171226448
76.7,0.0855645679070552
76.8,0.122916326284024
76.9,0.124122203355129
77,0.093009017048116
77.1,0.0652015132292675
77.2,0.0472568766073833
77.3,0.0359716222845051
77.4,0.0286002965634794
77.5,0.0235682174258118
77.6,0.0200015425935484
77.7,0.0173974467963784
77.8,0.0154515240257148
77.9,0.0139700504331322
78,0.0128242005776015
78.1,0.0119251487184034
78.2,0.0112098993522853
78.3,0.0106328440350685
78.4,0.0101604984541153
78.5,0.00976807826826986
78.6,0.00943718194406362
78.7,0.00915416734305574
78.8,0.0089089803638529
78.9,0.0086942891286631
79,0.00850483163182003
79.1,0.00833691688042726
79.2,0.0081880391284509
79.3,0.00805657714451191
79.4,0.00794155849590628
79.5,0.00784247424711693
79.6,0.00775913322543076
79.7,0.0076915476782512
79.8,0.00763984408976259
79.9,0.00760419436218041
80,0.00758476364698368
80.1,0.0075816719302374
80.2,0.00759496710605401
80.3,0.00762460775525542
80.4,0.00767045422665846
80.5,0.00773226691357165
80.6,0.00780971085759341
80.7,0.00790236600305572
80.8,0.00800974258975851
80.9,0.0081313013176515
81,0.00826647805914804
81.1,0.00841471305001085
81.2,0.00857548468190683
81.3,0.00874834828768323
81.4,0.00893298071580595
81.5,0.00912923215345318
81.6,0.00933718778776893
81.7,0.00955724389780699
81.8,0.00979020663338859
81.9,0.0100374286352057
82,0.0103010120259506
82.1,0.0105841330437235
82.2,0.010891598872544
82.3,0.0112308658378641
82.4,0.011614013580224
82.5,0.0120617933182915
82.6,0.0126124177306134
82.7,0.0133418743837229
82.8,0.0144143667847366
82.9,0.016218817073175
83,0.0197792107506807
83.1,0.0281544604943134
83.2,0.0518687818653043
83.3,0.128938322731236
83.4,0.304504967441995
83.5,0.333601523036299
83.6,0.259414960331912
83.7,0.223298078998742
83.8,0.222397924278127
83.9,0.553730732500198
84,0.150458245551568
84.1,0.104881019369966
84.2,0.0631579497738415
84.3,0.0338284442382499
84.4,0.0165419983546811
84.5,0.00747638581911592
84.6,0.00373248374664203
84.7,0.00495058464312859
84.8,0.00229239401336989
84.9,0.00108303161922996
85,0.00323495054235323
85.1,0.0106004481673834
85.2,0.155446150977695
85.3,0.0181591033563562
85.4,0.0163764055143882
85.5,0.0176954831939869
85.6,0.0186103156221074
85.7,0.0183270749544923
85.8,0.0169619541866477
85.9,0.0152197888968706
86,0.0138471837499669
86.1,0.0132519135810185
86.2,0.0135014959098303
86.3,0.0144852308677331
86.4,0.0160436670953595
86.5,0.0180283668314142
86.6,0.0203189362587708
86.7,0.0228235067814578
86.8,0.025477132554907
86.9,0.0282476792009645
87,0.0311682647580369
87.1,0.0344829318530459
87.2,0.0395482212714361
87.3,0.0621778399767694
87.4,0.244755554868055
87.5,0.0564923365670046
87.6,0.0498354109198546
87.7,0.0495370866152395
87.8,0.0504524483576361
87.9,0.0517381009429139
88,0.0531571153096659
88.1,0.0546099866497373
88.2,0.05604668179484
88.3,0.0575639283522885
88.4,0.0605325736178637
88.5,0.11355176452133
88.6,0.0640967176760592
88.7,0.05390007959382
88.8,0.0496467748151557
88.9,0.0464992374662927
89,0.0448739797980358
89.1,0.0442091944666343
89.2,0.0426788336085456
89.3,0.0394130239556907
89.4,0.0362393140464239
89.5,0.0365614680066496
89.6,0.0416685465597526
89.7,0.0485883077219578
89.8,0.0526055835557401
89.9,0.0504819765216848
90,0.0409113632230393
